id,m_cf1,m_cf2,m_cf3
1,0.72,-0.0,2.97
2,1.04,0.29,3.09
3,1.35,0.58,3.17
4,1.65,0.85,3.2
5,1.94,1.1,3.17
6,2.21,1.34,3.09
7,2.44,1.55,2.97
8,2.63,1.74,2.83
9,2.74,1.89,2.66
10,2.78,2.0,2.48
11,2.78,2.07,2.61
12,2.74,2.09,2.85
13,2.63,2.07,3.09
14,2.44,2.0,3.35
15,2.21,1.89,3.61
16,1.94,1.74,3.86
17,1.65,1.55,4.07
18,1.35,1.34,4.16
19,1.04,1.1,4.07
20,0.72,0.85,3.86
21,0.92,0.24,3.2
22,1.26,0.55,3.35
23,1.6,0.85,3.45
24,1.94,1.14,3.49
25,2.27,1.42,3.45
26,2.59,1.68,3.35
27,2.87,1.91,3.2
28,3.1,2.12,3.02
29,3.25,2.29,2.83
30,3.3,2.41,2.63
31,3.3,2.49,2.66
32,3.25,2.52,2.91
33,3.1,2.49,3.17
34,2.87,2.41,3.45
35,2.59,2.29,3.75
36,2.27,2.12,4.07
37,1.94,1.91,4.4
38,1.6,1.68,4.6
39,1.26,1.42,4.4
40,0.92,1.14,4.07
41,1.1,0.46,3.41
42,1.46,0.78,3.61
43,1.83,1.1,3.75
44,2.21,1.42,3.8
45,2.59,1.72,3.75
46,2.96,2.0,3.61
47,3.3,2.26,3.41
48,3.59,2.49,3.2
49,3.79,2.69,2.97
50,3.87,2.84,2.75
51,3.87,2.93,2.68
52,3.79,2.96,2.93
53,3.59,2.93,3.2
54,3.3,2.84,3.49
55,2.96,2.69,3.8
56,2.59,2.49,4.16
57,2.21,2.26,4.6
58,1.83,2.0,5.4
59,1.46,1.72,4.6
60,1.1,1.42,4.16
61,1.24,0.65,3.61
62,1.63,1.0,3.86
63,2.03,1.34,4.07
64,2.44,1.68,4.16
65,2.87,2.0,4.07
66,3.3,2.31,3.86
67,3.72,2.6,3.61
68,4.11,2.87,3.35
69,4.39,3.09,3.09
70,4.5,3.26,2.85
71,4.5,3.37,2.66
72,4.39,3.41,2.91
73,4.11,3.37,3.17
74,3.72,3.26,3.45
75,3.3,3.09,3.75
76,2.87,2.87,4.07
77,2.44,2.6,4.4
78,2.03,2.31,4.6
79,1.63,2.0,4.4
80,1.24,1.68,4.07
81,1.35,0.83,3.75
82,1.75,1.19,4.07
83,2.18,1.55,4.4
84,2.63,1.91,4.6
85,3.1,2.26,4.4
86,3.59,2.6,4.07
87,4.11,2.93,3.75
88,4.62,3.23,3.45
89,5.06,3.49,3.17
90,5.25,3.7,2.91
91,5.25,3.83,2.66
92,5.06,3.88,2.85
93,4.62,3.83,3.09
94,4.11,3.7,3.35
95,3.59,3.49,3.61
96,3.1,3.23,3.86
97,2.63,2.93,4.07
98,2.18,2.6,4.16
99,1.75,2.26,4.07
100,1.35,1.91,3.86
101,1.41,0.98,3.8
102,1.83,1.36,4.16
103,2.27,1.74,4.6
104,2.74,2.12,5.4
105,3.25,2.49,4.6
106,3.79,2.87,4.16
107,4.39,3.23,3.8
108,5.06,3.57,3.49
109,5.77,3.88,3.2
110,6.2,4.14,2.93
111,6.2,4.31,2.68
112,5.77,4.37,2.75
113,5.06,4.31,2.97
114,4.39,4.14,3.2
115,3.79,3.88,3.41
116,3.25,3.57,3.61
117,2.74,3.23,3.75
118,2.27,2.87,3.8
119,1.83,2.49,3.75
120,1.41,2.12,3.61
121,1.44,1.1,3.75
122,1.86,1.49,4.07
123,2.31,1.89,4.4
124,2.78,2.29,4.6
125,3.3,2.69,4.4
126,3.87,3.09,4.07
127,4.5,3.49,3.75
128,5.25,3.88,3.45
129,6.2,4.25,3.17
130,8.3,4.57,2.91
131,8.3,4.8,2.66
132,6.2,4.88,2.63
133,5.25,4.8,2.83
134,4.5,4.57,3.02
135,3.87,4.25,3.2
136,3.3,3.88,3.35
137,2.78,3.49,3.45
138,2.31,3.09,3.49
139,1.86,2.69,3.45
140,1.44,2.29,3.35
141,1.44,1.19,3.61
142,1.86,1.59,3.86
143,2.31,2.0,4.07
144,2.78,2.41,4.16
145,3.3,2.84,4.07
146,3.87,3.26,3.86
147,4.5,3.7,3.61
148,5.25,4.14,3.35
149,6.2,4.57,3.09
150,8.3,4.98,2.85
151,8.3,5.3,2.61
152,6.2,5.44,2.48
153,5.25,5.3,2.66
154,4.5,4.98,2.83
155,3.87,4.57,2.97
156,3.3,4.14,3.09
157,2.78,3.7,3.17
158,2.31,3.26,3.2
159,1.86,2.84,3.17
160,1.44,2.41,3.09
161,1.41,1.25,3.41
162,1.83,1.65,3.61
163,2.27,2.07,3.75
164,2.74,2.49,3.8
165,3.25,2.93,3.75
166,3.79,3.37,3.61
167,4.39,3.83,3.41
168,5.06,4.31,3.2
169,5.77,4.8,2.97
170,6.2,5.3,2.75
171,6.2,5.79,2.53
172,5.77,6.05,2.33
173,5.06,5.79,2.48
174,4.39,5.3,2.63
175,3.79,4.8,2.75
176,3.25,4.31,2.85
177,2.74,3.83,2.91
178,2.27,3.37,2.93
179,1.83,2.93,2.91
180,1.41,2.49,2.85
181,1.35,1.27,3.2
182,1.75,1.68,3.35
183,2.18,2.09,3.45
184,2.63,2.52,3.49
185,3.1,2.96,3.45
186,3.59,3.41,3.35
187,4.11,3.88,3.2
188,4.62,4.37,3.02
189,5.06,4.88,2.83
190,5.25,5.44,2.63
191,5.25,6.05,2.43
192,5.06,6.9,2.23
193,4.62,6.05,2.3
194,4.11,5.44,2.43
195,3.59,4.88,2.53
196,3.1,4.37,2.61
197,2.63,3.88,2.66
198,2.18,3.41,2.68
199,1.75,2.96,2.66
200,1.35,2.52,2.61
201,1.24,1.25,2.97
202,1.63,1.65,3.09
203,2.03,2.07,3.17
204,2.44,2.49,3.2
205,2.87,2.93,3.17
206,3.3,3.37,3.09
207,3.72,3.83,2.97
208,4.11,4.31,2.83
209,4.39,4.8,2.66
210,4.5,5.3,2.48
211,4.5,5.79,2.3
212,4.39,6.05,2.12
213,4.11,5.79,2.12
214,3.72,5.3,2.23
215,3.3,4.8,2.32
216,2.87,4.31,2.38
217,2.44,3.83,2.43
218,2.03,3.37,2.44
219,1.63,2.93,2.43
220,1.24,2.49,2.38
221,1.1,1.19,2.75
222,1.46,1.59,2.85
223,1.83,2.0,2.91
224,2.21,2.41,2.93
225,2.59,2.84,2.91
226,2.96,3.26,2.85
227,3.3,3.7,2.75
228,3.59,4.14,2.63
229,3.79,4.57,2.48
230,3.87,4.98,2.33
231,3.87,5.3,2.16
232,3.79,5.44,1.99
233,3.59,5.3,1.93
234,3.3,4.98,2.03
235,2.96,4.57,2.11
236,2.59,4.14,2.16
237,2.21,3.7,2.2
238,1.83,3.26,2.21
239,1.46,2.84,2.2
240,1.1,2.41,2.16
241,0.92,1.1,2.53
242,1.26,1.49,2.61
243,1.6,1.89,2.66
244,1.94,2.29,2.68
245,2.27,2.69,2.66
246,2.59,3.09,2.61
247,2.87,3.49,2.53
248,3.1,3.88,2.43
249,3.25,4.25,2.3
250,3.3,4.57,2.16
251,3.3,4.8,2.02
252,3.25,4.88,1.86
253,3.1,4.8,1.75
254,2.87,4.57,1.83
255,2.59,4.25,1.9
256,2.27,3.88,1.95
257,1.94,3.49,1.98
258,1.6,3.09,1.99
259,1.26,2.69,1.98
260,0.92,2.29,1.95
261,0.72,0.98,2.32
262,1.04,1.36,2.38
263,1.35,1.74,2.43
264,1.65,2.12,2.44
265,1.94,2.49,2.43
266,2.21,2.87,2.38
267,2.44,3.23,2.32
268,2.63,3.57,2.23
269,2.74,3.88,2.12
270,2.78,4.14,1.99
271,2.78,4.31,1.86
272,2.74,4.37,1.72
273,2.63,4.31,1.57
274,2.44,4.14,1.64
275,2.21,3.88,1.7
276,1.94,3.57,1.75
277,1.65,3.23,1.77
278,1.35,2.87,1.78
279,1.04,2.49,1.77
280,0.72,2.12,1.75
281,0.5,0.83,2.11
282,0.79,1.19,2.16
283,1.08,1.55,2.2
284,1.35,1.91,2.21
285,1.6,2.26,2.2
286,1.83,2.6,2.16
287,2.03,2.93,2.11
288,2.18,3.23,2.03
289,2.27,3.49,1.93
290,2.31,3.7,1.82
291,2.31,3.83,1.7
292,2.27,3.88,1.57
293,2.18,3.83,1.44
294,2.03,3.7,1.45
295,1.83,3.49,1.51
296,1.6,3.23,1.55
297,1.35,2.93,1.57
298,1.08,2.6,1.58
299,0.79,2.26,1.57
300,0.5,1.91,1.55
